epoch,accuracy,auc,learning_rate,loss,precision,recall,val_accuracy,val_auc,val_loss,val_precision,val_recall
0,0.980609655380249,0.9616525173187256,0.009999999776482582,0.023207776248455048,0.989786684513092,0.8868138194084167,0.8883950710296631,0.9534942507743835,0.1676599234342575,0.8883950710296631,0.8883950710296631
1,0.9854265451431274,0.9591590762138367,0.009999999776482582,0.017727883532643318,0.993028461933136,0.8893979787826538,0.8494732975959778,0.9211537837982178,0.188878133893013,0.8494732975959778,0.8494732975959778
2,0.9863848090171814,0.9596415758132935,0.009999999776482582,0.01637105457484722,0.9936764240264893,0.8907537460327148,0.8526498079299927,0.9161621332168579,0.17100240290164948,0.8526498079299927,0.8526498079299927
3,0.9875968098640442,0.9583816528320312,0.009999999776482582,0.015301021747291088,0.9943478107452393,0.8909378051757812,0.8888909816741943,0.9266647100448608,0.1781032830476761,0.8888909816741943,0.8888909816741943
4,0.9884223937988281,0.9586396813392639,0.009999999776482582,0.014434286393225193,0.9947303533554077,0.8914209008216858,0.8943337202072144,0.9292465448379517,0.20343555510044098,0.8943337202072144,0.8943337202072144
5,0.988588273525238,0.9587615728378296,0.009999999776482582,0.013915588147938251,0.9949938654899597,0.8910601139068604,0.8768315315246582,0.9199055433273315,0.199409618973732,0.8768315315246582,0.8768315315246582
6,0.9893455505371094,0.9592146277427673,0.009999999776482582,0.01332021877169609,0.9954895973205566,0.8915180563926697,0.8987155556678772,0.9233556985855103,0.22987815737724304,0.8987155556678772,0.8987155556678772
7,0.9894002079963684,0.9585168957710266,0.009999999776482582,0.013115540146827698,0.9954369068145752,0.892002522945404,0.8982887268066406,0.9454821944236755,0.16558505594730377,0.8982887268066406,0.8982887268066406
8,0.9895349144935608,0.9589021801948547,0.009999999776482582,0.012812236323952675,0.9954836964607239,0.8921365737915039,0.8943713903427124,0.92994225025177,0.17852365970611572,0.8943713903427124,0.8943713903427124
9,0.9895876049995422,0.9584771394729614,0.009999999776482582,0.012607007287442684,0.9956164360046387,0.8924974799156189,0.9042462110519409,0.9271022081375122,0.2086603343486786,0.9042462110519409,0.9042462110519409
10,0.9900911450386047,0.958398699760437,0.009999999776482582,0.012346237897872925,0.9958779811859131,0.8921746611595154,0.8949740529060364,0.91289883852005,0.20445311069488525,0.8949740529060364,0.8949740529060364
11,0.9900657534599304,0.9585106372833252,0.009999999776482582,0.012186703272163868,0.9958779811859131,0.8923618793487549,0.8925822973251343,0.9405014514923096,0.17528581619262695,0.8925822973251343,0.8925822973251343
12,0.9904190301895142,0.9588640332221985,0.009999999776482582,0.01179850846529007,0.996092677116394,0.8922702670097351,0.8977299928665161,0.9202589988708496,0.20410016179084778,0.8977299928665161,0.8977299928665161
13,0.9905263781547546,0.9587321281433105,0.009999999776482582,0.011728932149708271,0.9962273240089417,0.8928607702255249,0.9044345617294312,0.9425716996192932,0.20268258452415466,0.9044345617294312,0.9044345617294312
14,0.9903994798660278,0.9589318037033081,0.009999999776482582,0.01172422245144844,0.9961434006690979,0.8928980231285095,0.8990671634674072,0.9344745874404907,0.2000075876712799,0.8990671634674072,0.8990671634674072
15,0.9907039403915405,0.9591010212898254,0.009999999776482582,0.011356193572282791,0.9961785078048706,0.8932045102119446,0.8861538767814636,0.9168545007705688,0.2170940339565277,0.8861538767814636,0.8861538767814636
16,0.9905965924263,0.9574342966079712,0.004999999888241291,0.011590010486543179,0.9963697791099548,0.8925403952598572,0.8941203355789185,0.9275587797164917,0.19444739818572998,0.8941203355789185,0.8941203355789185
17,0.9911001920700073,0.9582177996635437,0.004999999888241291,0.011134563945233822,0.9964674115180969,0.8920195698738098,0.8986967206001282,0.9357508420944214,0.20719550549983978,0.8986967206001282,0.8986967206001282
18,0.9911060333251953,0.9578104019165039,0.004999999888241291,0.010944102890789509,0.9966274499893188,0.8926088809967041,0.8966627717018127,0.9226546883583069,0.20559567213058472,0.8966627717018127,0.8966627717018127
19,0.9912524223327637,0.9587440490722656,0.004999999888241291,0.010930386371910572,0.9965474009513855,0.8927618861198425,0.8969892263412476,0.9275747537612915,0.2007547914981842,0.8969892263412476,0.8969892263412476
20,0.99113529920578,0.9583116769790649,0.004999999888241291,0.010914246551692486,0.9966118335723877,0.8926807045936584,0.9037942290306091,0.9386623501777649,0.2071661502122879,0.9037942290306091,0.9037942290306091
21,0.9915217161178589,0.9584059119224548,0.004999999888241291,0.010539700277149677,0.9966567158699036,0.8927942514419556,0.9064559936523438,0.936375081539154,0.20624957978725433,0.9064559936523438,0.9064559936523438
22,0.9915685653686523,0.9586764574050903,0.004999999888241291,0.010503645054996014,0.9968518614768982,0.8932658433914185,0.9012643098831177,0.9409990906715393,0.20583897829055786,0.9012643098831177,0.9012643098831177
23,0.9916232228279114,0.9590365886688232,0.004999999888241291,0.010414212010800838,0.9967367053031921,0.8932157754898071,0.9003352522850037,0.9427767992019653,0.20659300684928894,0.9003352522850037,0.9003352522850037
24,0.9913890361785889,0.957804262638092,0.0024999999441206455,0.010613556951284409,0.9967445135116577,0.8926919102668762,0.8981757164001465,0.9443031549453735,0.17711788415908813,0.8981757164001465,0.8981757164001465
25,0.9914280772209167,0.9586641788482666,0.0024999999441206455,0.010427122935652733,0.9967172145843506,0.8929905295372009,0.899845540523529,0.94887375831604,0.1884961724281311,0.899845540523529,0.899845540523529
26,0.9915959239006042,0.9585736393928528,0.0024999999441206455,0.010355332866311073,0.996857762336731,0.8933116793632507,0.9006616473197937,0.9429591298103333,0.18424342572689056,0.9006616473197937,0.9006616473197937
27,0.9914475679397583,0.9583660960197449,0.0024999999441206455,0.010493932291865349,0.996715247631073,0.8931105732917786,0.9001845717430115,0.9369033575057983,0.2056346982717514,0.9001845717430115,0.9001845717430115
28,0.9915139079093933,0.9587923884391785,0.0024999999441206455,0.010305152274668217,0.9968909025192261,0.892651379108429,0.8913455605506897,0.9417981505393982,0.19216413795948029,0.8913455605506897,0.8913455605506897
29,0.9917325377464294,0.9585157632827759,0.0024999999441206455,0.010060888715088367,0.996990442276001,0.8932681679725647,0.8941077589988708,0.9447816014289856,0.1701626479625702,0.8941077589988708,0.8941077589988708
30,0.9915997982025146,0.9591220617294312,0.0024999999441206455,0.01012882124632597,0.9968401789665222,0.8935772776603699,0.8970896601676941,0.950904905796051,0.18157418072223663,0.8970896601676941,0.8970896601676941
31,0.9919120669364929,0.9592224955558777,0.0024999999441206455,0.009991331957280636,0.9970275163650513,0.8934935331344604,0.8986842036247253,0.9494433999061584,0.18120531737804413,0.8986842036247253,0.8986842036247253
32,0.9912055730819702,0.9582145810127258,0.0012499999720603228,0.010500838980078697,0.9966918230056763,0.892839789390564,0.8984895944595337,0.9594317078590393,0.16913489997386932,0.8984895944595337,0.8984895944595337
33,0.9915607571601868,0.9583357572555542,0.0012499999720603228,0.010339942760765553,0.9967893958091736,0.8931926488876343,0.8991801142692566,0.9539414048194885,0.1722317785024643,0.8991801142692566,0.8991801142692566
34,0.9915783405303955,0.958300769329071,0.0012499999720603228,0.010229773819446564,0.9968557953834534,0.8937022686004639,0.8945158123970032,0.9508420825004578,0.16979990899562836,0.8945158123970032,0.8945158123970032
35,0.9917051792144775,0.957840621471405,0.0012499999720603228,0.010110776871442795,0.9968792200088501,0.8927048444747925,0.899481475353241,0.956957221031189,0.16696809232234955,0.899481475353241,0.899481475353241
36,0.9918691515922546,0.9578854441642761,0.0012499999720603228,0.009985193610191345,0.996996283531189,0.8935124278068542,0.8978241682052612,0.9555163979530334,0.1737671196460724,0.8978241682052612,0.8978241682052612
37,0.9917129874229431,0.958124577999115,0.0012499999720603228,0.010151607915759087,0.9969514012336731,0.8930051922798157,0.8925069570541382,0.9497765302658081,0.1850530356168747,0.8925069570541382,0.8925069570541382
38,0.9916583299636841,0.9581586718559265,0.0012499999720603228,0.010139722377061844,0.9969494938850403,0.8933610916137695,0.8987972140312195,0.9546751976013184,0.17655853927135468,0.8987972140312195,0.8987972140312195
39,0.9917442202568054,0.9586032032966614,0.0012499999720603228,0.010038253851234913,0.9969416856765747,0.8934978246688843,0.8953946828842163,0.9549670815467834,0.16605839133262634,0.8953946828842163,0.8953946828842163
40,0.9913421869277954,0.9568684697151184,0.0006249999860301614,0.010449900291860104,0.9967367053031921,0.892808198928833,0.8931535482406616,0.9534845948219299,0.17719793319702148,0.8931535482406616,0.8931535482406616
41,0.9915939569473267,0.9571881294250488,0.0006249999860301614,0.010373623110353947,0.9967933297157288,0.8925749063491821,0.8891609311103821,0.9504806995391846,0.17388784885406494,0.8891609311103821,0.8891609311103821
42,0.991482675075531,0.9575446844100952,0.0006249999860301614,0.01038313191384077,0.9966879487037659,0.8924524188041687,0.8947229385375977,0.9537056684494019,0.1796853095293045,0.8947229385375977,0.8947229385375977
43,0.9915978312492371,0.9579904675483704,0.0006249999860301614,0.010269898921251297,0.996830403804779,0.8932294249534607,0.8923123478889465,0.9501008987426758,0.18365652859210968,0.8923123478889465,0.8923123478889465
44,0.9916076064109802,0.9580764174461365,0.0006249999860301614,0.010248475708067417,0.9968557953834534,0.8933646082878113,0.8955327868461609,0.9550266861915588,0.17511914670467377,0.8955327868461609,0.8955327868461609
45,0.9917637705802917,0.958267867565155,0.0006249999860301614,0.010130791924893856,0.9969572424888611,0.8937963843345642,0.899845540523529,0.9551295042037964,0.1773020178079605,0.899845540523529,0.899845540523529
46,0.9917129874229431,0.9575390219688416,0.0006249999860301614,0.010183035396039486,0.9969006776809692,0.8934829831123352,0.8955516219139099,0.9537240266799927,0.1877296417951584,0.8955516219139099,0.8955516219139099
47,0.9916388392448425,0.9577244520187378,0.0006249999860301614,0.010191383771598339,0.996918261051178,0.8929786086082458,0.8880999684333801,0.9520719647407532,0.17223411798477173,0.8880999684333801,0.8880999684333801
